# T(K) V(Ang^3) B(GPa) M1(GPa) M2(GPa) M3(GPa) M4(GPa) M5(GPa) M6(GPa) E(GPa) G(GPa)
0.0  16.642904    75.4602   226.3807    36.0847    36.0847    31.9544    31.9544    31.9544    70.9034    26.3896
10.0  16.642907    75.4601   226.3802    36.0845    36.0845    31.9543    31.9543    31.9543    70.9031    26.3895
20.0  16.642956    75.4574   226.3721    36.0814    36.0814    31.9532    31.9532    31.9532    70.8998    26.3882
30.0  16.643204    75.4423   226.3270    36.0652    36.0652    31.9475    31.9475    31.9475    70.8823    26.3815
40.0  16.643944    75.4011   226.2033    36.0184    36.0184    31.9305    31.9305    31.9305    70.8312    26.3620
50.0  16.645453    75.3265   225.9794    35.9275    35.9275    31.8958    31.8958    31.8958    70.7301    26.3230
60.0  16.647886    75.2184   225.6552    35.7868    35.7868    31.8400    31.8400    31.8400    70.5711    26.2614
70.0  16.651279    75.0806   225.2419    35.5965    35.5965    31.7621    31.7621    31.7621    70.3536    26.1766
80.0  16.655597    74.9181   224.7542    35.3600    35.3600    31.6631    31.6631    31.6631    70.0808    26.0699
90.0  16.660767    74.7354   224.2062    35.0818    35.0818    31.5447    31.5447    31.5447    69.7578    25.9432
100.0  16.666703    74.5367   223.6101    34.7666    34.7666    31.4089    31.4089    31.4089    69.3902    25.7987
110.0  16.673317    74.3253   222.9758    34.4190    34.4190    31.2577    31.2577    31.2577    68.9834    25.6384
120.0  16.680528    74.1037   222.3111    34.0426    34.0426    31.0932    31.0932    31.0932    68.5422    25.4644
130.0  16.688263    73.8740   221.6220    33.6408    33.6408    30.9170    30.9170    30.9170    68.0708    25.2783
140.0  16.696460    73.6377   220.9132    33.2163    33.2163    30.7305    30.7305    30.7305    67.5728    25.0816
150.0  16.705064    73.3961   220.1882    32.7714    32.7714    30.5352    30.5352    30.5352    67.0512    24.8754
160.0  16.714029    73.1500   219.4499    32.3081    32.3081    30.3321    30.3321    30.3321    66.5086    24.6609
170.0  16.723316    72.9001   218.7003    31.8278    31.8278    30.1220    30.1220    30.1220    65.9471    24.4388
180.0  16.732891    72.6471   217.9412    31.3319    31.3319    29.9060    29.9060    29.9060    65.3684    24.2100
190.0  16.742727    72.3913 217.1738+0.0000j 30.8215+0.0000j 30.8215+0.0000j 29.6845+0.0000j 29.6845-0.0000j 29.6845+0.0000j    64.7742    23.9750
200.0  16.752800    72.1331   216.3993    30.2976    30.2976    29.4582    29.4582    29.4582    64.1657    23.7344
210.0  16.763089    71.8728   215.6184    29.7609    29.7609    29.2276    29.2276    29.2276    63.5439    23.4887
220.0  16.773577    71.6106   214.8319    29.2121    29.2121    28.9931    28.9931    28.9931    62.9099    23.2383
230.0  16.784250    71.3467   214.0402    28.7551    28.7551    28.7551    28.6517    28.6517    62.2644    22.9834
240.0  16.795094    71.0813   213.2439    28.5139    28.5139    28.5139    28.0803    28.0803    61.6080    22.7244
250.0  16.806098    70.8144   212.4432    28.2699    28.2699    28.2699    27.4983    27.4983    60.9414    22.4616
260.0  16.817254    70.5462   211.6385    28.0231    28.0231    28.0231    26.9061    26.9061    60.2651    22.1951
270.0  16.828553    70.2767   210.8301    27.7739    27.7739    27.7739    26.3040    26.3040    59.5795    21.9252
280.0  16.839988    70.0060   210.0181    27.5225    27.5225    27.5225    25.6923    25.6923    58.8851    21.6520
290.0  16.851554    69.7342   209.2027    27.2690    27.2690    27.2690    25.0713    25.0713    58.1821    21.3756
300.0  16.863244    69.4614   208.3841    27.0136    27.0136    27.0136    24.4411    24.4411    57.4708    21.0964
310.0  16.875054    69.1875   207.5624    26.7563    26.7563    26.7563    23.8021    23.8021    56.7516    20.8142
320.0  16.886981    68.9125   206.7376    26.4974    26.4974    26.4974    23.1545    23.1545    56.0247    20.5293
330.0  16.899021    68.6367   205.9100    26.2370    26.2370    26.2370    22.4983    22.4983    55.2902    20.2418
340.0  16.911171    68.3598   205.0794    25.9750    25.9750    25.9750    21.8338    21.8338    54.5484    19.9518
350.0  16.923428    68.0820   204.2461    25.7117    25.7117    25.7117    21.1611    21.1611    53.7995    19.6593
360.0  16.935790    67.8033   203.4100    25.4472    25.4472    25.4472    20.4805    20.4805    53.0435    19.3644
370.0  16.948256    67.5238   202.5713    25.1814    25.1814    25.1814    19.7920    19.7920    52.2807    19.0672
380.0  16.960824    67.2433   201.7299    24.9145    24.9145    24.9145    19.0957    19.0957    51.5112    18.7679
390.0  16.973492    66.9619   200.8858    24.6466    24.6466    24.6466    18.3918    18.3918    50.7351    18.4663
400.0  16.986259    66.6797   200.0392    24.3776    24.3776    24.3776    17.6805    17.6805    49.9525    18.1627
410.0  16.999125    66.3967   199.1900    24.1077    24.1077    24.1077    16.9619    16.9619    49.1636    17.8570
420.0  17.012089    66.1127   198.3382    23.8370    23.8370    23.8370    16.2360    16.2360    48.3684    17.5494
430.0  17.025149    65.8280   197.4839    23.5654    23.5654    23.5654    15.5030    15.5030    47.5670    17.2398
440.0  17.038306    65.5423   196.6270    23.2930    23.2930    23.2930    14.7631    14.7631    46.7595    16.9284
450.0  17.051559    65.2559   195.7676    23.0199    23.0199    23.0199    14.0163    14.0163    45.9460    16.6152
460.0  17.064908    64.9685   194.9056    22.7461    22.7461    22.7461    13.2628    13.2628    45.1267    16.3002
470.0  17.078354    64.6804   194.0412    22.4717    22.4717    22.4717    12.5027    12.5027    44.3015    15.9836
480.0  17.091895    64.3914   193.1742    22.1967    22.1967    22.1967    11.7361    11.7361    43.4705    15.6652
490.0  17.105532    64.1015   192.3046    21.9212    21.9212    21.9212    10.9631    10.9631    42.6339    15.3453
500.0  17.119266    63.8109   191.4326    21.6452    21.6452    21.6452    10.1840    10.1840    41.7918    15.0239
510.0  17.133096    63.5193   190.5580    21.3687    21.3687    21.3687     9.3987     9.3987    40.9441    14.7009
520.0  17.147024    63.2269   189.6808    21.0918    21.0918    21.0918     8.6075     8.6075    40.0911    14.3766
530.0  17.161049    62.9337   188.8011    20.8145    20.8145    20.8145     7.8105     7.8105    39.2327    14.0508
540.0  17.175172    62.6396   187.9188    20.5369    20.5369    20.5369     7.0078     7.0078    38.3690    13.7237
550.0  17.189393    62.3447   187.0340    20.2590    20.2590    20.2590     6.1995     6.1995    37.5002    13.3953
560.0  17.203713    62.0489   186.1466    19.9809    19.9809    19.9809     5.3859     5.3859    36.6264    13.0657
570.0  17.218134    61.7522   185.2566    19.7026    19.7026    19.7026     4.5671     4.5671    35.7476    12.7350
580.0  17.232655    61.4547   184.3640    19.4241    19.4241    19.4241     3.7432     3.7432    34.8639    12.4031
590.0  17.247277    61.1562   183.4687    19.1455    19.1455    19.1455     2.9143     2.9143    33.9754    12.0702
600.0  17.262002    60.8569   182.5708    18.8669    18.8669    18.8669     2.0808     2.0808    33.0822    11.7363
610.0  17.276829    60.5568   181.6703    18.5882    18.5882    18.5882     1.2427     1.2427    32.1845    11.4015
620.0  17.291761    60.2557   180.7671    18.3095    18.3095    18.3095     0.4003     0.4003    31.2824    11.0658
630.0  17.306799    59.9537   179.8612    18.0309    18.0309    18.0309    -0.4464    -0.4464    30.3758    10.7293
640.0  17.321942    59.6509   178.9527    17.7524    17.7524    17.7524    -1.2970    -1.2970    29.4651    10.3921
650.0  17.337193    59.3471   178.0414    17.4741    17.4741    17.4741    -2.1514    -2.1514    28.5503    10.0542
660.0  17.352552    59.0424   177.1273    17.1960    17.1960    17.1960    -3.0093    -3.0093    27.6316     9.7157
670.0  17.368021    58.7368   176.2105    16.9182    16.9182    16.9182    -3.8706    -3.8706    26.7090     9.3768
680.0  17.383601    58.4303   175.2909    16.6406    16.6406    16.6406    -4.7351    -4.7351    25.7828     9.0374
690.0  17.399293    58.1228   174.3685    16.3634    16.3634    16.3634    -5.6023    -5.6023    24.8531     8.6976
700.0  17.415099    57.8144   173.4433    16.0867    16.0867    16.0867    -6.4723    -6.4723    23.9201     8.3576
710.0  17.431019    57.5051   172.5152    15.8104    15.8104    15.8104    -7.3446    -7.3446    22.9839     8.0173
720.0  17.447056    57.1948   171.5843    15.5347    15.5347    15.5347    -8.2189    -8.2189    22.0447     7.6770
730.0  17.463211    56.8835   170.6505    15.2595    15.2595    15.2595    -9.0952    -9.0952    21.1028     7.3367
740.0  17.479486    56.5712   169.7137    14.9850    14.9850    14.9850    -9.9729    -9.9729    20.1583     6.9964
750.0  17.495881    56.2580   168.7740    14.7113    14.7113    14.7113   -10.8519   -10.8519    19.2115     6.6564
760.0  17.512399    55.9438   167.8313    14.4383    14.4383    14.4383   -11.7318   -11.7318    18.2625     6.3166
770.0  17.529042    55.6285   166.8856    14.1662    14.1662    14.1662   -12.6123   -12.6123    17.3117     5.9772
780.0  17.545810    55.3123   165.9369    13.8949    13.8949    13.8949   -13.4930   -13.4930    16.3592     5.6384
790.0  17.562707    54.9951   164.9852    13.6247    13.6247    13.6247   -14.3736   -14.3736    15.4054     5.3001
800.0  17.579733    54.6768   164.0303    13.3556    13.3556    13.3556   -15.2538   -15.2538    14.4506     4.9626
810.0  17.596890    54.3574   163.0723    13.0876    13.0876    13.0876   -16.1331   -16.1331    13.4950     4.6259
820.0  17.614181    54.0371   162.1112    12.8208    12.8208    12.8208   -17.0111   -17.0111    12.5390     4.2903
830.0  17.631608    53.7156   161.1469    12.5554    12.5554    12.5554   -17.8874   -17.8874    11.5829     3.9557
840.0  17.649172    53.3931   160.1793    12.2913    12.2913    12.2913   -18.7616   -18.7616    10.6270     3.6225
850.0  17.666876    53.0695   159.2086    12.0287    12.0287    12.0287   -19.6333   -19.6333     9.6719     3.2906
860.0  17.684722    52.7448   158.2345    11.7677    11.7677    11.7677   -20.5018   -20.5018     8.7177     2.9603
870.0  17.702712    52.4190   157.2571    11.5084    11.5084    11.5084   -21.3669   -21.3669     7.7651     2.6317
880.0  17.720848    52.0921   156.2764    11.2509    11.2509    11.2509   -22.2279   -22.2279     6.8143     2.3049
890.0  17.739133    51.7641   155.2922    10.9952    10.9952    10.9952   -23.0842   -23.0842     5.8660     1.9803
900.0  17.757569    51.4349   154.3047    10.7415    10.7415    10.7415   -23.9355   -23.9355     4.9206     1.6578
910.0  17.776159    51.1045   153.3136    10.4899    10.4899    10.4899   -24.7809   -24.7809     3.9786     1.3378
920.0  17.794905    50.7730   152.3191    10.2405    10.2405    10.2405   -25.6201   -25.6201     3.0406     1.0203
930.0  17.813811    50.4403   151.3210     9.9935     9.9935     9.9935   -26.4522   -26.4522     2.1072     0.7057
940.0  17.832878    50.1064   150.3192     9.7489     9.7489     9.7489   -27.2766   -27.2766     1.1790     0.3940
