# T(K) V(Ang^3) B(GPa) C11 C12 C44 E(GPa) G(GPa) B_correction_factor
0.0  16.642904    75.4602    99.5167    63.4320    31.9544    70.9034    26.3896     1.0042
10.0  16.642907    75.4602    99.5164    63.4319    31.9543    70.9031    26.3895     1.0042
20.0  16.642956    75.4596    99.5139    63.4325    31.9532    70.9000    26.3882     1.0042
30.0  16.643204    75.4558    99.4993    63.4341    31.9475    70.8836    26.3815     1.0040
40.0  16.643944    75.4447    99.4570    63.4386    31.9305    70.8355    26.3620     1.0037
50.0  16.645453    75.4231    99.3748    63.4472    31.8958    70.7395    26.3230     1.0031
60.0  16.647886    75.3891    99.2470    63.4602    31.8400    70.5878    26.2614     1.0023
70.0  16.651279    75.3423    99.0733    63.4768    31.7621    70.3790    26.1766     1.0014
80.0  16.655597    75.2832    98.8565    63.4965    31.6631    70.1161    26.0699     1.0003
90.0  16.660767    75.2126    98.6005    63.5187    31.5447    69.8037    25.9432     0.9993
100.0  16.666703    75.1319    98.3096    63.5430    31.4089    69.4471    25.7987     0.9982
110.0  16.673317    75.0421    97.9880    63.5691    31.2577    69.0514    25.6384     0.9971
120.0  16.680528    74.9443    97.6394    63.5968    31.0932    68.6213    25.4644     0.9961
130.0  16.688263    74.8396    97.2668    63.6260    30.9170    68.1609    25.2783     0.9950
140.0  16.696460    74.7289    96.8731    63.6568    30.7305    67.6736    25.0816     0.9940
150.0  16.705064    74.6128    96.4604    63.6890    30.5352    67.1624    24.8754     0.9930
160.0  16.714029    74.4921    96.0308    63.7228    30.3321    66.6299    24.6609     0.9921
170.0  16.723316    74.3673    95.5859    63.7581    30.1220    66.0781    24.4388     0.9912
180.0  16.732891    74.2389    95.1269    63.7950    29.9060    65.5089    24.2100     0.9903
190.0  16.742727    74.1073    94.6550    63.8335    29.6845    64.9237    23.9750     0.9894
200.0  16.752800    73.9729    94.1713    63.8737    29.4582    64.3238    23.7344     0.9885
210.0  16.763089    73.8358    93.6764    63.9156    29.2276    63.7103    23.4887     0.9877
220.0  16.773577    73.6965    93.1712    63.9592    28.9931    63.0842    23.2383     0.9869
230.0  16.784250    73.5551    92.6562    64.0045    28.7551    62.4461    22.9834     0.9861
240.0  16.795094    73.4118    92.1320    64.0517    28.5139    61.7969    22.7244     0.9853
250.0  16.806098    73.2667    91.5989    64.1006    28.2699    61.1371    22.4616     0.9846
260.0  16.817254    73.1201    91.0575    64.1514    28.0231    60.4672    22.1951     0.9838
270.0  16.828553    72.9720    90.5080    64.2040    27.7739    59.7876    21.9252     0.9831
280.0  16.839988    72.8225    89.9507    64.2584    27.5225    59.0987    21.6520     0.9823
290.0  16.851554    72.6717    89.3859    64.3146    27.2690    58.4009    21.3756     0.9816
300.0  16.863244    72.5198    88.8139    64.3727    27.0136    57.6945    21.0964     0.9809
310.0  16.875054    72.3667    88.2348    64.4327    26.7563    56.9798    20.8142     0.9802
320.0  16.886981    72.2127    87.6489    64.4945    26.4974    56.2569    20.5293     0.9795
330.0  16.899021    72.0576    87.0564    64.5581    26.2370    55.5262    20.2418     0.9788
340.0  16.911171    71.9016    86.4574    64.6236    25.9750    54.7877    19.9518     0.9781
350.0  16.923428    71.7447    85.8521    64.6909    25.7117    54.0417    19.6593     0.9774
360.0  16.935790    71.5869    85.2405    64.7601    25.4472    53.2884    19.3644     0.9768
370.0  16.948256    71.4283    84.6230    64.8310    25.1814    52.5278    19.0672     0.9761
380.0  16.960824    71.2690    83.9995    64.9038    24.9145    51.7601    18.7679     0.9754
390.0  16.973492    71.1089    83.3701    64.9783    24.6466    50.9854    18.4663     0.9747
400.0  16.986259    70.9481    82.7351    65.0546    24.3776    50.2040    18.1627     0.9741
410.0  16.999125    70.7866    82.0945    65.1326    24.1077    49.4157    17.8570     0.9734
420.0  17.012089    70.6244    81.4484    65.2124    23.8370    48.6209    17.5494     0.9728
430.0  17.025149    70.4616    80.7969    65.2939    23.5654    47.8195    17.2398     0.9721
440.0  17.038306    70.2981    80.1402    65.3771    23.2930    47.0116    16.9284     0.9715
450.0  17.051559    70.1340    79.4782    65.4619    23.0199    46.1974    16.6152     0.9708
460.0  17.064908    69.9694    78.8112    65.5484    22.7461    45.3770    16.3002     0.9701
470.0  17.078354    69.8041    78.1392    65.6365    22.4717    44.5503    15.9836     0.9695
480.0  17.091895    69.6382    77.4622    65.7262    22.1967    43.7176    15.6652     0.9688
490.0  17.105532    69.4718    76.7805    65.8174    21.9212    42.8789    15.3453     0.9682
500.0  17.119266    69.3048    76.0941    65.9101    21.6452    42.0343    15.0239     0.9675
510.0  17.133096    69.1373    75.4030    66.0043    21.3687    41.1838    14.7009     0.9669
520.0  17.147024    68.9692    74.7075    66.1000    21.0918    40.3276    14.3766     0.9662
530.0  17.161049    68.8006    74.0075    66.1971    20.8145    39.4658    14.0508     0.9656
540.0  17.175172    68.6314    73.3033    66.2955    20.5369    38.5984    13.7237     0.9649
550.0  17.189393    68.4618    72.5948    66.3953    20.2590    37.7255    13.3953     0.9643
560.0  17.203713    68.2916    71.8822    66.4963    19.9809    36.8473    13.0657     0.9636
570.0  17.218134    68.1209    71.1656    66.5986    19.7026    35.9638    12.7350     0.9630
580.0  17.232655    67.9498    70.4452    66.7020    19.4241    35.0752    12.4031     0.9623
590.0  17.247277    67.7781    69.7210    66.8066    19.1455    34.1815    12.0702     0.9616
600.0  17.262002    67.6059    68.9931    66.9123    18.8669    33.2829    11.7363     0.9610
610.0  17.276829    67.4333    68.2618    67.0190    18.5882    32.3795    11.4015     0.9603
620.0  17.291761    67.2601    67.5270    67.1267    18.3095    31.4714    11.0658     0.9596
630.0  17.306799    67.0865    66.7890    67.2353    18.0309    30.5588    10.7293     0.9590
640.0  17.321942    66.9125    66.0479    67.3448    17.7524    29.6417    10.3921     0.9583
650.0  17.337193    66.7379    65.3037    67.4551    17.4741    28.7203    10.0542     0.9576
660.0  17.352552    66.5629    64.5568    67.5661    17.1960    27.7949     9.7157     0.9570
670.0  17.368021    66.3874    63.8071    67.6777    16.9182    26.8654     9.3768     0.9563
680.0  17.383601    66.2114    63.0548    67.7899    16.6406    25.9322     9.0374     0.9556
690.0  17.399293    66.0350    62.3002    67.9025    16.3634    24.9954     8.6976     0.9549
700.0  17.415099    65.8581    61.5433    68.0156    16.0867    24.0551     8.3576     0.9542
710.0  17.431019    65.6807    60.7844    68.1290    15.8104    23.1116     8.0173     0.9535
720.0  17.447056    65.5028    60.0236    68.2425    15.5347    22.1651     7.6770     0.9528
730.0  17.463211    65.3244    59.2611    68.3563    15.2595    21.2158     7.3367     0.9521
740.0  17.479486    65.1456    58.4971    68.4700    14.9850    20.2639     6.9964     0.9514
750.0  17.495881    64.9663    57.7318    68.5837    14.7113    19.3097     6.6564     0.9507
760.0  17.512399    64.7865    56.9654    68.6972    14.4383    18.3534     6.3166     0.9500
770.0  17.529042    64.6062    56.1981    68.8104    14.1662    17.3953     5.9772     0.9493
780.0  17.545810    64.4254    55.4302    68.9232    13.8949    16.4356     5.6384     0.9485
790.0  17.562707    64.2442    54.6619    69.0355    13.6247    15.4748     5.3001     0.9478
800.0  17.579733    64.0625    53.8934    69.1472    13.3556    14.5130     4.9626     0.9471
810.0  17.596890    63.8803    53.1250    69.2581    13.0876    13.5507     4.6259     0.9463
820.0  17.614181    63.6976    52.3570    69.3681    12.8208    12.5882     4.2903     0.9456
830.0  17.631608    63.5145    51.5896    69.4770    12.5554    11.6259     3.9557     0.9448
840.0  17.649172    63.3308    50.8231    69.5848    12.2913    10.6641     3.6225     0.9440
850.0  17.666876    63.1466    50.0579    69.6911    12.0287     9.7032     3.2906     0.9433
860.0  17.684722    62.9620    49.2942    69.7960    11.7677     8.7438     2.9603     0.9425
870.0  17.702712    62.7769    48.5324    69.8992    11.5084     7.7862     2.6317     0.9417
880.0  17.720848    62.5913    47.7727    70.0006    11.2509     6.8310     2.3049     0.9409
890.0  17.739133    62.4051    47.0157    70.0999    10.9952     5.8786     1.9803     0.9401
900.0  17.757569    62.2185    46.2615    70.1970    10.7415     4.9297     1.6578     0.9393
910.0  17.776159    62.0314    45.5107    70.2917    10.4899     3.9847     1.3378     0.9385
920.0  17.794905    61.8437    44.7637    70.3837    10.2405     3.0442     1.0203     0.9376
930.0  17.813811    61.6556    44.0208    70.4729     9.9935     2.1090     0.7057     0.9368
940.0  17.832878    61.4669    43.2824    70.5591     9.7489     1.1796     0.3940     0.9359
